I-V Test: B86-G33-22FZ+27MP-G-DMSO-D1GB-C1+
Comment: 
Pre-illuminating the cell 0.160000 cm2 for 0.000 min
141 measurment points were collected with additional applied  0.000 V voltage at a settling time of  100 ms

Friday -  March 13, 2015 - 11:55 AM


Light Intensity:,100.0% Sun
Voc (mV),737
Jsc (mA/cm2),3.79
Fill Factor,0.703
Efficiency (%),1.96
Voltage (mV),100.0% Sun (mA/cm2)
1300.000,-83.994750
1290.000,-90.028187
1280.000,-91.890000
1270.000,-92.216375
1260.000,-91.747812
1250.000,-90.771937
1240.000,-89.421750
1230.000,-87.809750
1220.000,-86.032562
1210.000,-84.066937
1200.000,-81.992437
1190.000,-79.812875
1180.000,-77.572125
1170.000,-75.264937
1160.000,-72.920375
1150.000,-70.508312
1140.000,-68.124812
1130.000,-65.690250
1120.000,-63.253500
1110.000,-60.825119
1100.000,-58.416562
1090.000,-56.003512
1080.000,-53.602200
1070.000,-51.210550
1060.000,-48.838737
1050.000,-46.506712
1040.000,-44.180856
1030.000,-41.921862
1020.000,-39.673837
1010.000,-37.474150
1000.000,-35.310669
990.000,-33.203512
980.000,-31.120744
970.000,-29.094581
960.000,-27.119862
950.000,-25.212381
940.000,-23.363744
930.000,-21.573319
920.000,-19.842856
910.000,-18.176594
900.000,-16.577137
890.000,-15.035581
880.000,-13.563587
870.000,-12.166906
860.000,-10.829375
850.000,-9.566112
840.000,-8.380669
830.000,-7.252475
820.000,-6.197815
810.000,-5.212134
800.000,-4.291332
790.000,-3.444797
780.000,-2.652565
770.000,-1.922789
760.000,-1.260652
750.000,-0.677231
740.000,-0.123986
730.000,0.356542
720.000,0.796138
710.000,1.183744
700.000,1.520466
690.000,1.832902
680.000,2.096955
670.000,2.322962
660.000,2.525472
650.000,2.694439
640.000,2.843040
630.000,2.979197
620.000,3.089727
610.000,3.175131
600.000,3.266349
590.000,3.330389
580.000,3.387140
570.000,3.439051
560.000,3.475489
550.000,3.516431
540.000,3.548212
530.000,3.573813
520.000,3.604125
510.000,3.614174
500.000,3.636618
490.000,3.650562
480.000,3.663794
470.000,3.677370
460.000,3.688764
450.000,3.688449
440.000,3.706998
430.000,3.717231
420.000,3.720259
410.000,3.727415
400.000,3.736833
390.000,3.732256
380.000,3.744122
370.000,3.746331
360.000,3.747464
350.000,3.757462
340.000,3.752277
330.000,3.764986
320.000,3.759776
310.000,3.767406
300.000,3.768669
290.000,3.767748
280.000,3.774406
270.000,3.773931
260.000,3.776534
250.000,3.772617
240.000,3.776747
230.000,3.782956
220.000,3.775957
210.000,3.781534
200.000,3.789029
190.000,3.785717
180.000,3.795109
170.000,3.784140
160.000,3.788165
150.000,3.787219
140.000,3.785535
130.000,3.795241
120.000,3.785719
110.000,3.783929
100.000,3.786429
90.000,3.786244
80.000,3.795612
70.000,3.785297
60.000,3.790112
50.000,3.790638
40.000,3.789980
30.000,3.788352
20.000,3.795662
10.000,3.791137
0.000,3.791981
-10.000,3.780375
-20.000,3.789848
-30.000,3.777772
-40.000,3.792637
-50.000,3.790481
-60.000,3.793639
-70.000,3.784086
-80.000,3.789216
-90.000,3.783034
-100.000,3.782823
