I-V Test: B86-G33-22FZ+27MP-G-DMSO-D1GB-C3
Comment: 
Pre-illuminating the cell 0.160000 cm2 for 0.000 min
141 measurment points were collected with additional applied  0.000 V voltage at a settling time of  100 ms

Friday -  March 13, 2015 - 12:03 PM


Light Intensity:,100.0% Sun
Voc (mV),900
Jsc (mA/cm2),5.16
Fill Factor,0.581
Efficiency (%),2.70
Voltage (mV),100.0% Sun (mA/cm2)
1300.000,-69.861750
1290.000,-72.016562
1280.000,-69.723375
1270.000,-66.684312
1260.000,-63.572375
1250.000,-60.572112
1240.000,-57.636037
1230.000,-54.765356
1220.000,-51.998069
1210.000,-49.272606
1200.000,-46.599356
1190.000,-43.985037
1180.000,-41.449719
1170.000,-38.944181
1160.000,-36.518137
1150.000,-34.142775
1140.000,-31.853281
1130.000,-29.626025
1120.000,-27.452637
1110.000,-25.364762
1100.000,-23.361944
1090.000,-21.437206
1080.000,-19.588687
1070.000,-17.827800
1060.000,-16.129188
1050.000,-14.525981
1040.000,-13.006719
1030.000,-11.585231
1020.000,-10.229181
1010.000,-8.965681
1000.000,-7.779162
990.000,-6.678781
980.000,-5.657661
970.000,-4.714684
960.000,-3.843896
950.000,-3.041612
940.000,-2.314311
930.000,-1.641836
920.000,-1.035738
910.000,-0.485256
900.000,0.015243
890.000,0.451391
880.000,0.865570
870.000,1.218551
860.000,1.549509
850.000,1.825637
840.000,2.084927
830.000,2.312618
820.000,2.520837
810.000,2.708879
800.000,2.869767
790.000,3.018922
780.000,3.154999
770.000,3.272791
760.000,3.373559
750.000,3.477748
740.000,3.564969
730.000,3.647636
720.000,3.715175
710.000,3.778635
700.000,3.848462
690.000,3.907345
680.000,3.968622
670.000,4.018559
660.000,4.071760
650.000,4.125486
640.000,4.179054
630.000,4.229201
620.000,4.270142
610.000,4.305422
600.000,4.349754
590.000,4.386747
580.000,4.439631
570.000,4.472441
560.000,4.501592
550.000,4.546137
540.000,4.578551
530.000,4.593101
520.000,4.639063
510.000,4.665111
500.000,4.686266
490.000,4.717260
480.000,4.744175
470.000,4.781957
460.000,4.791848
450.000,4.827764
440.000,4.834155
430.000,4.871304
420.000,4.877464
410.000,4.890408
400.000,4.914192
390.000,4.935741
380.000,4.947922
370.000,4.963844
360.000,4.968418
350.000,4.989887
340.000,5.008252
330.000,5.009252
320.000,5.027669
310.000,5.034141
300.000,5.032881
290.000,5.060452
280.000,5.053717
270.000,5.057717
260.000,5.061687
250.000,5.074001
240.000,5.078502
230.000,5.082817
220.000,5.093051
210.000,5.105519
200.000,5.098154
190.000,5.097023
180.000,5.108179
170.000,5.116519
160.000,5.122097
150.000,5.118494
140.000,5.134751
130.000,5.136252
120.000,5.125752
110.000,5.154748
100.000,5.144725
90.000,5.152276
80.000,5.160353
70.000,5.160588
60.000,5.161954
50.000,5.154537
40.000,5.166351
30.000,5.152249
20.000,5.164959
10.000,5.159432
0.000,5.163536
-10.000,5.162297
-20.000,5.164691
-30.000,5.166616
-40.000,5.173191
-50.000,5.171271
-60.000,5.172217
-70.000,5.163059
-80.000,5.174980
-90.000,5.177821
-100.000,5.185111
